Time (ms),L-AI,L-TS,C7,R-TS,R-AI,T8,R-WRIST-JOINT,R-ELBOW-JOINT
12,0,0,0,0,0,0,0,0
42,-1.181251526,-1.038772583,-1.042993546,-1.443042755,-1.258934021,-1.596260071,-4.792510986,-2.963348389
77,-2.338096619,-2.01322937,-2.103143692,-2.959682465,-2.453964233,-3.076599121,-10.23823547,-7.023391724
111,-3.435028076,-2.852294922,-3.160560608,-4.550636292,-3.555290222,-4.386859894,-16.87165833,-13.19422913
139,-4.433288574,-3.478683472,-4.168483734,-6.152832031,-4.559570313,-5.527629852,-25.04125977,-22.21496582
175,-5.3048172,-3.788970947,-5.073646545,-7.716251373,-5.478126526,-6.52289772,-34.85821533,-34.49072266
209,-6.042137146,-3.667694092,-5.826442719,-9.232707977,-6.335655212,-7.400938034,-46.08140564,-49.92034912
244,-6.659179688,-3.033950806,-6.388084412,-10.68776321,-7.163269043,-8.185300827,-58.0227356,-67.6894989
272,-7.168579102,-1.885223389,-6.732673645,-12.02575684,-7.967407227,-8.885131836,-69.72091675,-86.55290222
308,-7.558380127,-0.306350708,-6.848937988,-13.18506241,-8.704078674,-9.490289688,-80.41122437,-105.5323486
339,-7.807235718,1.563995361,-6.752574921,-14.13205338,-9.29045105,-9.970449448,-89.87649536,-124.1771088
379,-7.915252686,3.579223633,-6.494174957,-14.85656738,-9.643058777,-10.27947807,-98.34533691,-142.2809906
410,-7.911880493,5.610092163,-6.144664764,-15.37072754,-9.719154358,-10.38427925,-106.1705933,-159.5713348
452,-7.848434448,7.550994873,-5.768405914,-15.71402359,-9.537826538,-10.30645561,-113.5942078,-175.5670624
481,-7.787475586,9.322677612,-5.400352478,-15.94447327,-9.169296265,-10.13128853,-120.6967773,-189.700058
518,-7.775436401,10.88458252,-5.036178589,-16.10672379,-8.690605164,-9.957372665,-127.4231567,-201.5695038
543,-7.808380127,12.25033569,-4.647319794,-16.19876099,-8.133026123,-9.826284409,-133.4850769,-211.0125275
586,-7.833587646,13.47914886,-4.212745667,-16.19503403,-7.477432251,-9.710435867,-138.3474731,-218.0204315
617,-7.787963867,14.64196777,-3.729797363,-16.10725784,-6.694023132,-9.554719925,-141.4619141,-222.628006
650,-7.630142212,15.78837585,-3.190544128,-15.98387527,-5.763656616,-9.302282333,-142.469574,-224.8269806
688,-7.356552124,16.9387207,-2.564472198,-15.84514236,-4.66758728,-8.901926041,-141.2471008,-224.5942841
717,-7.00579071,18.11151886,-1.813140869,-15.64748001,-3.379920959,-8.327278137,-137.9006653,-221.9670868
751,-6.627861023,19.3503952,-0.900550842,-15.30903625,-1.881278992,-7.589445114,-132.7088928,-217.0804901
790,-6.231033325,20.71537018,0.2122612,-14.7555809,-0.180343628,-6.722185135,-125.9599915,-210.191391
817,-5.766044617,22.24919128,1.552248001,-13.93695831,1.686813354,-5.754787445,-117.764679,-201.623703
848,-5.163215637,23.9446106,3.102888107,-12.81496811,3.68081665,-4.693616867,-108.1044312,-191.6014557
886,-4.379402161,25.74059296,4.793949127,-11.38622284,5.778053284,-3.517635345,-97.10876465,-180.170639
914,-3.41355896,27.54864502,6.523019791,-9.730705261,7.972961426,-2.187381744,-85.12277222,-167.3573761
948,-2.295402527,29.28386688,8.192790985,-7.999046326,10.26612854,-0.669467926,-72.49362183,-153.3048859
991,-1.071426392,30.89434814,9.743242264,-6.335678101,12.63990021,1.035610199,-59.48223877,-138.2355194
1022,0.206672668,32.38189697,11.15761948,-4.806346893,15.03842163,2.891277313,-46.35063171,-122.4792938
1049,1.488494873,33.78809357,12.44151974,-3.383239746,17.38690948,4.848436356,-33.36575317,-106.5344391
1085,2.724609375,35.14629364,13.60195351,-2.005157471,19.62473297,6.850967407,-20.75398254,-90.95674133
1114,3.857765198,36.42866516,14.63482761,-0.663188934,21.68119812,8.797647476,-8.742965698,-76.25231934
1155,4.812637329,37.51874542,15.51294899,0.564727783,23.43454742,10.51686192,2.3956604,-62.94102478
1187,5.50730896,38.24595642,16.18360138,1.548873901,24.74382782,11.81533718,12.34608459,-51.6242218
1218,5.879692078,38.4789505,16.58711243,2.179290771,25.51989746,12.55670547,20.76199341,-42.83377075
1251,5.898391724,38.19929504,16.68617821,2.416835785,25.75489807,12.69528484,27.3356781,-36.77957153
1285,5.557113647,37.48908997,16.48028564,2.280574799,25.5038147,12.26436043,31.87780762,-33.31230164
1315,4.872772217,36.46694946,16.00115585,1.815971375,24.85163879,11.35675335,34.33235168,-32.08850098
1343,3.887992859,35.23643494,15.29742336,1.091873169,23.8768158,10.09470081,34.76652527,-32.76271057
1388,2.660247803,33.85888672,14.41330719,0.1823349,22.61850739,8.579327583,33.3792572,-35.12686157
1424,1.24067688,32.35494232,13.3800621,-0.866100311,21.07091522,6.870172501,30.47729492,-39.09089661
1451,-0.324043274,30.73490143,12.22298145,-2.015167236,19.21604156,5.014688492,26.37554932,-44.56019592
1485,-1.965614319,29.02202606,10.97180748,-3.194637299,17.07769775,3.071466446,21.30477905,-51.39825439
1511,-3.590209961,27.24267578,9.662883759,-4.321510315,14.74884033,1.104120255,15.40194702,-59.44566345
1550,-5.113670349,25.40429688,8.321376801,-5.361797333,12.3560791,-0.829805374,8.756057739,-68.49996948
1591,-6.498054504,23.49868774,6.951421738,-6.350769043,9.999023438,-2.686525345,1.484741211,-78.31340027
1624,-7.751113892,21.52919006,5.555152893,-7.345241547,7.730621338,-4.447034836,-6.248428345,-88.62724304
1651,-8.893325806,19.52999878,4.155416489,-8.370197296,5.582901001,-6.120582581,-14.32077026,-99.22171021
1685,-9.924911499,17.56800842,2.812656403,-9.400650024,3.598571777,-7.71146965,-22.66165161,-109.9766998
1715,-10.80802917,15.73853302,1.624223709,-10.35840988,1.846862793,-9.165750504,-31.13795471,-120.8140411
1741,-11.46514893,14.15457153,0.69077301,-11.11433411,0.417190552,-10.36321449,-39.49261475,-131.5271759
1797,-11.79859924,12.91838074,0.086589813,-11.51616669,-0.601821899,-11.16195869,-47.40812683,-141.7526093
1824,-11.72392273,12.07862854,-0.14556694,-11.43943787,-1.136749268,-11.44514275,-54.63311768,-151.1085968
1853,-11.19606018,11.60997009,-0.007566452,-10.82927322,-1.147232056,-11.1535244,-61.04257202,-159.3161774
1883,-10.22145081,11.44150543,0.444131851,-9.727550507,-0.655387878,-10.30064964,-66.56723022,-166.2570038
1910,-8.845565796,11.50428772,1.123882294,-8.263572693,0.256828308,-8.961574554,-71.14935303,-171.9832916
1943,-7.115493774,11.75669861,1.951738358,-6.582263947,1.485107422,-7.249738693,-74.834198,-176.6615753
1979,-5.077163696,12.17922974,2.875076294,-4.783309937,2.935974121,-5.289709091,-77.82855225,-180.4592133
2022,-2.816856384,12.75189209,3.877799988,-2.922828674,4.551002502,-3.188949585,-80.38519287,-183.4272614
2053,-0.460678101,13.44169617,4.967470169,-1.018825531,6.300971985,-1.026086807,-82.62921143,-185.4326324
2075,1.87903595,14.21128845,6.151002884,0.954936981,8.141975403,1.141397476,-84.51803589,-186.1999969
2119,4.12877655,15.02098083,7.415187836,3.025371552,9.9868927,3.260362625,-85.94891357,-185.4603119
2155,6.231536865,15.81313324,8.712356567,5.141941071,11.71508026,5.264375687,-86.82980347,-183.0790558
2184,8.119155884,16.50048065,9.961591721,7.164859772,13.19936371,7.062961578,-86.98391724,-179.103714
2213,9.703689575,16.96627808,11.06353569,8.93441391,14.33235931,8.546775818,-85.94296265,-173.7754974
2250,10.89699554,17.08733368,11.91453934,10.33468246,15.0351944,9.611839294,-82.91540527,-167.4751434
2285,11.65263367,16.78509521,12.43169117,11.30353928,15.26141357,10.19155502,-77.40444946,-160.5634613
2319,11.99150085,16.06238556,12.58449268,11.81789017,15.02147675,10.28404427,-70.11010742,-153.249588
2363,11.98419952,14.99411774,12.40244484,11.90478134,14.40073395,9.965751648,-62.63122559,-145.6058502
2388,11.71980286,13.70353699,11.96189499,11.6667366,13.53713226,9.375083923,-56.00500488,-137.6077728
2422,11.30123138,12.34737396,11.36491966,11.26201248,12.58078003,8.673159599,-50.07601929,-129.141861
2453,10.8562088,11.07983398,10.70983887,10.84828568,11.66744995,8.013770103,-44.15507507,-120.0853119
2487,10.51911163,9.993629456,10.07371712,10.53727341,10.90460205,7.519902229,-37.78544617,-110.3781433
2518,10.38437653,9.100692749,9.511310577,10.37392807,10.3538208,7.256865501,-31.03953552,-100.0131836
2551,10.4801178,8.373519897,9.045204163,10.34653091,10.01291656,7.227434158,-24.22428894,-89.09107971
2586,10.76767731,7.780502319,8.656557083,10.4144783,9.822402954,7.388958931,-17.37219238,-77.93482971
2630,11.14762878,7.285003662,8.305517197,10.52074051,9.696258545,7.659725189,-10.3200531,-67.05995178
2649,11.49266052,6.851470947,7.966737747,10.5978508,9.551200867,7.919491768,-3.148178101,-56.9851532
2686,11.70185852,6.462753296,7.643610001,10.59789658,9.327659607,8.045728683,3.811141968,-48.06698608
2719,11.72644043,6.120727539,7.355693817,10.51124191,9.011703491,7.98267746,10.27883911,-40.47277832
2743,11.56226349,5.832168579,7.115335464,10.33520126,8.648216248,7.775994301,16.15660095,-34.23535156
2789,11.24701691,5.596420288,6.908176422,10.04806137,8.315071106,7.530825615,21.45175171,-29.289505
2815,10.86274719,5.410263062,6.692834854,9.625255585,8.069847107,7.337189674,26.18444824,-25.47729492
2851,10.50759125,5.281967163,6.421615601,9.05223465,7.925323486,7.232429504,30.34858704,-22.5544281
2898,10.24386597,5.230575562,6.070457458,8.322528839,7.863731384,7.207466125,33.92622375,-20.23841858
2926,10.07595825,5.277389526,5.658758163,7.441326141,7.855964661,7.220491409,36.91040039,-18.32295227
2955,9.967498779,5.44317627,5.229515076,6.419536591,7.871131897,7.210532188,39.25271606,-16.81976318
2984,9.864616394,5.748794556,4.804275513,5.257656097,7.879440308,7.123119354,40.75909424,-16.0328064
3014,9.712905884,6.216720581,4.372919083,3.951404572,7.852180481,6.93060112,41.04891968,-16.4868927
3054,9.473724365,6.862594604,3.931890488,2.518192291,7.762458801,6.629163742,39.64086914,-18.75488281
3091,9.145591736,7.682617188,3.522792816,1.009506226,7.590332031,6.23969841,36.13908386,-23.29728699
3117,8.7786026,8.658996582,3.222391129,-0.496925354,7.335266113,5.820764542,30.39651489,-30.34866333
3156,8.449775696,9.775794983,3.095115662,-1.904975891,7.037719727,5.45108223,22.56813049,-39.85969543
3191,8.210220337,11.02288818,3.164039612,-3.111000061,6.792915344,5.183137894,13.05085754,-51.55545044
3217,8.060546875,12.38193512,3.409713745,-4.041294098,6.719512939,5.023588181,2.354568481,-65.08226013
3252,7.965171814,13.80445862,3.770580292,-4.705768585,6.888931274,4.950733185,-9.02180481,-80.10064697
3283,7.873252869,15.208992,4.155197144,-5.198535919,7.283081055,4.935871124,-20.62785339,-96.25733948
3312,7.733863831,16.51161194,4.481039047,-5.626457214,7.821273804,4.95419693,-31.95481873,-113.0799255
3360,7.510650635,17.65872192,4.709766388,-6.048233032,8.409828186,4.988233566,-42.4520874,-129.8998566
3397,7.201583862,18.63170624,4.847957611,-6.469234467,8.958770752,5.026628494,-51.79998779,-145.9694977
3419,6.851387024,19.43746948,4.92587471,-6.861209869,9.392097473,5.060594559,-60.02468872,-160.7531281
3453,6.52482605,20.10356903,4.978271484,-7.18655777,9.677635193,5.079658508,-67.37561035,-174.0600433
3489,6.252571106,20.66168213,5.032455444,-7.431377411,9.837478638,5.068063736,-74.16662598,-185.8488922
3510,6.007583618,21.11698151,5.10001564,-7.636539459,9.926452637,5.00336647,-80.54980469,-195.9901581
3563,5.725227356,21.44837952,5.169315338,-7.893695831,10.00867462,4.859294891,-86.34405518,-204.2728424
3600,5.338012695,21.64675903,5.205587387,-8.296142578,10.14241791,4.615491867,-91.13766479,-210.5582123
3614,4.8073349,21.73661804,5.175735474,-8.875915527,10.36613464,4.27684021,-94.57931519,-214.8543243
3665,4.135261536,21.76539612,5.084999084,-9.576160431,10.67933655,3.888023376,-96.55975342,-217.2732697
3700,3.352577209,21.78920746,4.980365753,-10.28663635,11.03022766,3.510528564,-97.15908813,-217.9557648
3716,2.507110596,21.8657608,4.919855118,-10.90363693,11.34236145,3.173570633,-96.49978638,-217.0249176
3747,1.657012939,22.04774475,4.950683594,-11.35381317,11.56941223,2.85691452,-94.6774292,-214.5878143
3784,0.855575562,22.36993408,5.106061935,-11.58953094,11.72157288,2.518688202,-91.7951355,-210.7687531
3815,0.129119873,22.83207703,5.399250031,-11.59176636,11.85216522,2.137659073,-87.97851563,-205.7255096
3855,-0.533843994,23.39766693,5.811100006,-11.37631989,12.03522491,1.741262436,-83.33621216,-199.5978851
3896,-1.161392212,24.01663971,6.293672562,-10.99116516,12.34453583,1.388988495,-77.96878052,-192.4355927
3922,-1.768157959,24.64378357,6.799926758,-10.50119781,12.82606506,1.124376297,-71.98937988,-184.2250519
3951,-2.354141235,25.24230194,7.304506302,-9.966110229,13.47201538,0.953781128,-65.4786377,-174.9986115
3991,-2.906951904,25.79367828,7.788888931,-9.430023193,14.22363281,0.8634758,-58.48550415,-164.8852997
4022,-3.384025574,26.30218506,8.226320267,-8.924854279,15.00354767,0.84185791,-51.10617065,-154.0713959
4054,-3.716468811,26.77248383,8.6010952,-8.475585938,15.75174713,0.891490936,-43.48924255,-142.7570038
4093,-3.847579956,27.19263458,8.933029175,-8.098342896,16.44120789,1.031650543,-35.78634644,-131.1464691
4127,-3.757362366,27.55423737,9.26842308,-7.785079956,17.06419373,1.290903091,-28.13694763,-119.4386902
4159,-3.463012695,27.8785553,9.64342308,-7.488903046,17.62466431,1.687765121,-20.62998962,-107.7972717
4201,-3.013511658,28.20910645,10.05540848,-7.146686554,18.15390778,2.2127285,-13.28968811,-96.35089111
4231,-2.460769653,28.57608032,10.47881126,-6.73192215,18.70101929,2.841777802,-6.16027832,-85.24595642
4257,-1.818763733,28.96877289,10.90904427,-6.265926361,19.2948761,3.566068649,0.645843506,-74.67863464
4294,-1.069282532,29.35286713,11.3723793,-5.760253906,19.93641663,4.384149551,6.984634399,-64.88043213
4326,-0.212112427,29.71734619,11.89390755,-5.173725128,20.61813354,5.266141891,12.69172668,-56.10552979
4363,0.711471558,30.08968353,12.47708035,-4.451881409,21.32247162,6.147083282,17.57772827,-48.62654114
4390,1.647064209,30.50416565,13.11644745,-3.58921814,22.01582336,6.961421967,21.48132324,-42.72171021
4419,2.555732727,30.96089935,13.80323887,-2.638851166,22.65636444,7.669863701,24.31851196,-38.633255
4454,3.408851624,31.41309357,14.50063515,-1.686088562,23.18811035,8.245944023,26.04788208,-36.49461365
4492,4.177879333,31.79099274,15.13050556,-0.824371338,23.54244232,8.667239189,26.62365723,-36.28730774
4527,4.838874817,32.0357666,15.60054398,-0.130786896,23.66979218,8.938545227,25.98223877,-37.86317444
4550,5.379425049,32.11844635,15.84856892,0.363758087,23.5609436,9.101438522,24.05531311,-41.00140381
4586,5.81060791,32.03459167,15.86582375,0.676948547,23.24732208,9.213348389,20.84977722,-45.46643066
4621,6.176826477,31.77854156,15.68211842,0.841625214,22.79701233,9.323561668,16.52622986,-51.05145264
4658,6.53818512,31.33081818,15.33832169,0.885002136,22.28716278,9.456127167,11.35494995,-57.5982666
4694,6.928718567,30.67571259,14.86767483,0.831085205,21.76161957,9.594544411,5.58392334,-64.99562073
4724,7.324615479,29.81925964,14.28980255,0.702518463,21.22939301,9.681850433,-0.660186768,-73.16534424
4755,7.659454346,28.78475189,13.62146282,0.515399933,20.69863892,9.661640167,-7.35786438,-82.0340271
4798,7.872703552,27.60115051,12.87741852,0.261829376,20.18016052,9.525450706,-14.47517395,-91.49841309
4827,7.934165955,26.29777527,12.0592947,-0.089179993,19.65926361,9.300168037,-21.88023376,-101.4078827
4850,7.834831238,24.90197754,11.17037392,-0.554141998,19.09902191,9.000785828,-29.3952179,-111.5771027
4890,7.579772949,23.45191956,10.23958778,-1.106590271,18.47648621,8.61854744,-36.88221741,-121.7848816
4928,7.200218201,22.02030182,9.321432114,-1.67339325,17.79168701,8.151151657,-44.23716736,-131.7425995
4959,6.767913818,20.7035141,8.483905792,-2.146896362,17.051651,7.635117531,-51.30325317,-141.1265411
5003,6.375564575,19.57579041,7.793989182,-2.430431366,16.27746582,7.139406204,-57.85220337,-149.6800385
5028,6.091186523,18.6615448,7.293111801,-2.490386963,15.51734161,6.731813431,-63.662323,-157.2770233
5055,5.940437317,17.93424988,6.971378326,-2.368167877,14.83098602,6.46635437,-68.56240845,-163.9084015
5091,5.924911499,17.32298279,6.768306732,-2.159152985,14.25585175,6.376138687,-72.44967651,-169.6089325
5124,6.040962219,16.73749542,6.601232529,-1.966953278,13.78110504,6.441928864,-75.30841064,-174.3859406
5163,6.281837463,16.10345459,6.395936966,-1.846637726,13.3577652,6.58898735,-77.1184082,-178.2313385
5209,6.623603821,15.38565063,6.112195969,-1.782485962,12.94555664,6.738298416,-77.69692993,-181.1968842
5233,7.01210022,14.59913635,5.764194489,-1.705101013,12.55277252,6.847898483,-76.72079468,-183.4116974
5262,7.386177063,13.80426025,5.416028976,-1.517189026,12.22480011,6.912445068,-74.13873291,-185.0089874
5296,7.726760864,13.08398438,5.143013,-1.126415253,11.99649048,6.949838638,-70.70275879,-186.0529633
5322,8.073852539,12.51300049,4.992290497,-0.490127563,11.8684845,6.992010117,-67.71618652,-186.5048981
5360,8.497001648,12.12584686,4.974935532,0.358665466,11.82009125,7.078246117,-65.99749756,-186.2493744
5394,9.047485352,11.90016937,5.076316833,1.328968048,11.82660675,7.247440338,-65.40463257,-185.1871185
5422,9.717781067,11.7674408,5.259183884,2.306755066,11.86691284,7.524867058,-65.30511475,-183.2816925
5470,10.43570709,11.63771057,5.461122513,3.177616119,11.92402649,7.899404526,-65.13027954,-180.5156403
5498,11.09455872,11.421875,5.606878281,3.847423553,11.98106384,8.305150032,-64.60241699,-176.8678436
5522,11.59513855,11.05343628,5.634740829,4.2719841,12.01517487,8.641253471,-63.73577881,-172.3531647
5559,11.87903595,10.50411987,5.513450623,4.467441559,11.99182892,8.821340561,-62.71859741,-167.0590363
5590,11.93217468,9.769119263,5.240682602,4.478908539,11.86269379,8.79944706,-61.79638672,-161.1378326
5620,11.76583862,8.842254639,4.827060699,4.339954376,11.57160187,8.565999985,-61.15319824,-154.7660065
5666,11.4092865,7.730209351,4.282697678,4.065258026,11.07421112,8.143326759,-60.70318604,-148.1004181
5695,10.91311646,6.474182129,3.621398926,3.668567657,10.36161804,7.574361801,-60.0012207,-141.2247162
5728,10.32809448,5.130050659,2.85751915,3.167415619,9.46055603,6.894622803,-58.54165649,-134.1162262
5758,9.67024231,3.749984741,1.993967056,2.570133209,8.411399841,6.122964859,-56.16821289,-126.7142792
5791,8.930450439,2.39100647,1.039405823,1.875118256,7.253242493,5.290739059,-53.10070801,-119.0216675
5824,8.126121521,1.111953735,0.03758812,1.096363068,6.027610779,4.466018677,-49.63522339,-111.1112213
5866,7.330101013,-0.032104492,-0.925422668,0.296199799,4.795661926,3.74398613,-45.95465088,-103.0688019
5900,6.657318115,-0.974090576,-1.726411819,-0.415336609,3.662612915,3.219013214,-42.12797546,-94.95877075
5924,6.231971741,-1.621047974,-2.21736145,-0.914352417,2.784538269,2.959606171,-38.12524414,-86.82662964
5955,6.15447998,-1.867248535,-2.25963974,-1.089286804,2.328315735,3.007238388,-33.88232422,-78.72180176
5996,6.485832214,-1.629318237,-1.780769348,-0.871986389,2.414588928,3.390592575,-29.36967468,-70.72561646
6035,7.237831116,-0.875518799,-0.820640564,-0.282466888,3.08908844,4.117786407,-24.55361938,-62.96806335
6058,8.346481323,0.366088867,0.473644257,0.5822258,4.308937073,5.14352417,-19.54977417,-55.60980225
6102,9.660133362,2.008804321,1.908924103,1.602508545,5.939186096,6.359130859,-14.93814087,-48.79066467
6141,10.98231506,3.913848877,3.315149307,2.638233185,7.780647278,7.627440453,-11.47244263,-42.60704041
6163,12.13864899,5.912414551,4.564119339,3.509082794,9.613037109,8.811343193,-9.362411499,-37.1499176
6192,13.01009369,7.851699829,5.557966232,4.041362762,11.22861481,9.780077934,-8.219497681,-32.54090881
6224,13.5364151,9.643692017,6.251045227,4.14056778,12.46617889,10.44135284,-7.58140564,-28.9377594
6249,13.72044373,11.27837372,6.684885025,3.811626434,13.25365448,10.7823391,-7.220703125,-26.5422821
6291,13.62460327,12.8033371,6.977050781,3.148654938,13.62981415,10.86593914,-7.190246582,-25.61712646
6327,13.35955811,14.29619598,7.275114059,2.32698822,13.72148132,10.7997961,-7.882843018,-26.48959351
6361,13.07370758,15.83309174,7.710826874,1.573940277,13.70417786,10.71125793,-10.04641724,-29.50564575
